t,Sensor V [V],Control T [K],Control V [V],Heater Range [a.u.],Heater % [a.u.],Setpoint T [K]
1568167540.8039782,+0.7985,+197.52,+0.7613,0,000,+003.26
1568167572.8364277,+0.7988,+197.42,+0.7616,0,000,+003.26
1568167604.8720758,+0.7990,+197.33,+0.7618,0,000,+003.26
1568167636.9060805,+0.7992,+197.22,+0.7620,0,000,+003.26
1568167668.9393046,+0.7994,+197.12,+0.7623,0,000,+003.26
1568167700.9743984,+0.7996,+197.03,+0.7625,0,000,+003.26
1568167733.008554,+0.7998,+196.93,+0.7627,0,000,+003.26
1568167765.0421288,+0.8000,+196.83,+0.7630,0,000,+003.26
1568167797.076408,+0.8002,+196.73,+0.7632,0,000,+003.26
1568167829.1119366,+0.8005,+196.63,+0.7634,0,000,+003.26
1568167861.1454048,+0.8007,+196.53,+0.7637,0,000,+003.26
1568167893.179499,+0.8009,+196.44,+0.7639,0,000,+003.26
1568167925.2155385,+0.8011,+196.34,+0.7641,0,000,+003.26
1568167957.2500997,+0.8013,+196.24,+0.7643,0,000,+003.26
1568167989.2836616,+0.8015,+196.14,+0.7646,0,000,+003.26
1568168021.317088,+0.8017,+196.04,+0.7648,0,000,+003.26
1568168053.3520284,+0.8019,+195.94,+0.7650,0,000,+003.26
1568168085.387188,+0.8021,+195.84,+0.7653,0,000,+003.26
1568168117.4230416,+0.8024,+195.74,+0.7655,0,000,+003.26
1568168149.45857,+0.8026,+195.65,+0.7657,0,000,+003.26
1568168181.492889,+0.8028,+195.55,+0.7660,0,000,+003.26
1568168213.5266597,+0.8030,+195.45,+0.7662,0,000,+003.26
1568168245.5607731,+0.8032,+195.35,+0.7664,0,000,+003.26
1568168277.5948863,+0.8034,+195.25,+0.7666,0,000,+003.26
1568168309.6307683,+0.8036,+195.15,+0.7669,0,000,+003.26
1568168341.6668944,+0.8038,+195.05,+0.7671,0,000,+003.26
1568168373.702631,+0.8041,+194.95,+0.7673,0,000,+003.26
1568168405.7353241,+0.8043,+194.85,+0.7675,0,000,+003.26
1568168437.7693403,+0.8045,+194.75,+0.7678,0,000,+003.26
1568168469.8024714,+0.8047,+194.65,+0.7680,0,000,+003.26
1568168501.836483,+0.8049,+194.56,+0.7682,0,000,+003.26
1568168533.862681,+0.8051,+194.45,+0.7685,0,000,+003.26
1568168565.8931732,+0.8053,+194.35,+0.7687,0,000,+003.26
1568168597.9276202,+0.8055,+194.25,+0.7689,0,000,+003.26
1568168629.957465,+0.8057,+194.15,+0.7692,0,000,+003.26
1568168661.99157,+0.8059,+194.05,+0.7694,0,000,+003.26
1568168694.0265653,+0.8062,+193.95,+0.7696,0,000,+003.26
1568168726.0591862,+0.8064,+193.85,+0.7698,0,000,+003.26
1568168758.0911474,+0.8066,+193.75,+0.7701,0,000,+003.26
1568168790.1257865,+0.8068,+193.65,+0.7703,0,000,+003.26
1568168822.156522,+0.8070,+193.55,+0.7705,0,000,+003.26
1568168854.190758,+0.8072,+193.45,+0.7707,0,000,+003.26
1568168886.2263062,+0.8074,+193.35,+0.7710,0,000,+003.26
1568168918.2623549,+0.8076,+193.25,+0.7712,0,000,+003.26
1568168950.298004,+0.8078,+193.15,+0.7714,0,000,+003.26
1568168982.3337367,+0.8080,+193.05,+0.7716,0,000,+003.26
1568169014.3672805,+0.8083,+192.95,+0.7719,0,000,+003.26
1568169046.4013712,+0.8085,+192.85,+0.7721,0,000,+003.26
1568169078.4356048,+0.8087,+192.75,+0.7723,0,000,+003.26
1568169110.4710164,+0.8089,+192.65,+0.7726,0,000,+003.26
1568169142.5050123,+0.8091,+192.56,+0.7728,0,000,+003.26
1568169174.5368817,+0.8093,+192.45,+0.7730,0,000,+003.26
1568169206.557434,+0.8095,+192.35,+0.7732,0,000,+003.26
1568169238.5915658,+0.8097,+192.25,+0.7735,0,000,+003.26
1568169270.6272857,+0.8099,+192.15,+0.7737,0,000,+003.26
1568169302.6573257,+0.8101,+192.05,+0.7739,0,000,+003.26
1568169334.6894655,+0.8103,+191.95,+0.7741,0,000,+003.26
1568169366.7241082,+0.8106,+191.86,+0.7744,0,000,+003.26
1568169398.756519,+0.8108,+191.76,+0.7746,0,000,+003.26
1568169430.792103,+0.8110,+191.65,+0.7748,0,000,+003.26
1568169462.8277812,+0.8112,+191.55,+0.7751,0,000,+003.26
1568169494.858197,+0.8114,+191.46,+0.7753,0,000,+003.26
1568169526.8938696,+0.8116,+191.36,+0.7755,0,000,+003.26
1568169558.9272404,+0.8118,+191.26,+0.7757,0,000,+003.26
1568169590.9603906,+0.8120,+191.16,+0.7760,0,000,+003.26
1568169622.9945326,+0.8122,+191.06,+0.7762,0,000,+003.26
1568169655.030251,+0.8124,+190.96,+0.7764,0,000,+003.26
1568169687.0644302,+0.8126,+190.86,+0.7766,0,000,+003.26
1568169719.099517,+0.8128,+190.77,+0.7769,0,000,+003.26
1568169751.132683,+0.8130,+190.67,+0.7771,0,000,+003.26
1568169783.1654923,+0.8133,+190.56,+0.7773,0,000,+003.26
1568169815.2013128,+0.8135,+190.47,+0.7775,0,000,+003.26
1568169847.2363591,+0.8137,+190.37,+0.7778,0,000,+003.26
1568169879.250136,+0.8139,+190.27,+0.7780,0,000,+003.26
1568169911.2812147,+0.8141,+190.17,+0.7782,0,000,+003.26
1568169943.313347,+0.8143,+190.07,+0.7784,0,000,+003.26
1568169975.3454425,+0.8145,+189.97,+0.7786,0,000,+003.26
1568170007.3779016,+0.8147,+189.87,+0.7789,0,000,+003.26
1568170039.4138956,+0.8149,+189.77,+0.7791,0,000,+003.26
1568170071.4482446,+0.8151,+189.68,+0.7793,0,000,+003.26
1568170103.4797256,+0.8153,+189.58,+0.7796,0,000,+003.26
1568170135.5153372,+0.8155,+189.48,+0.7798,0,000,+003.26
1568170167.5475209,+0.8157,+189.38,+0.7800,0,000,+003.26
1568170199.5826468,+0.8159,+189.28,+0.7802,0,000,+003.26
1568170231.6157355,+0.8161,+189.18,+0.7805,0,000,+003.26
1568170263.6518,+0.8164,+189.08,+0.7807,0,000,+003.26
1568170295.6869454,+0.8166,+188.98,+0.7809,0,000,+003.26
1568170327.7214093,+0.8168,+188.88,+0.7811,0,000,+003.26
1568170359.754705,+0.8170,+188.79,+0.7814,0,000,+003.26
1568170391.7903209,+0.8172,+188.69,+0.7816,0,000,+003.26
1568170423.8224819,+0.8174,+188.59,+0.7818,0,000,+003.26
1568170455.857731,+0.8176,+188.50,+0.7820,0,000,+003.26
1568170487.891301,+0.8178,+188.40,+0.7822,0,000,+003.26
1568170519.9261837,+0.8180,+188.30,+0.7825,0,000,+003.26
1568170551.9554298,+0.8182,+188.20,+0.7827,0,000,+003.26
1568170583.989498,+0.8184,+188.10,+0.7829,0,000,+003.26
1568170616.0252793,+0.8186,+188.00,+0.7831,0,000,+003.26
1568170648.0587668,+0.8188,+187.90,+0.7834,0,000,+003.26
1568170680.094588,+0.8190,+187.81,+0.7836,0,000,+003.26
1568170712.1280608,+0.8192,+187.71,+0.7838,0,000,+003.26
1568170744.1627197,+0.8194,+187.61,+0.7840,0,000,+003.26
1568170776.1960633,+0.8196,+187.51,+0.7842,0,000,+003.26
1568170808.2299323,+0.8199,+187.42,+0.7845,0,000,+003.26
1568170840.2637272,+0.8201,+187.32,+0.7847,0,000,+003.26
1568170872.299683,+0.8203,+187.22,+0.7849,0,000,+003.26
1568170904.3353183,+0.8205,+187.12,+0.7851,0,000,+003.26
1568170936.3699627,+0.8207,+187.03,+0.7854,0,000,+003.26
1568170968.405445,+0.8209,+186.92,+0.7856,0,000,+003.26
1568171000.4413579,+0.8211,+186.83,+0.7858,0,000,+003.26
1568171032.475338,+0.8213,+186.73,+0.7860,0,000,+003.26
1568171064.5081465,+0.8215,+186.63,+0.7863,0,000,+003.26
1568171096.5392797,+0.8217,+186.53,+0.7865,0,000,+003.26
1568171128.575237,+0.8219,+186.44,+0.7867,0,000,+003.26
1568171160.6094143,+0.8221,+186.34,+0.7869,0,000,+003.26
1568171192.6445935,+0.8223,+186.24,+0.7871,0,000,+003.26
1568171224.6792715,+0.8225,+186.15,+0.7874,0,000,+003.26
1568171256.7139118,+0.8227,+186.04,+0.7876,0,000,+003.26
1568171288.7453206,+0.8229,+185.95,+0.7878,0,000,+003.26
1568171320.7791066,+0.8231,+185.85,+0.7880,0,000,+003.26
1568171352.813989,+0.8233,+185.76,+0.7882,0,000,+003.26
1568171384.8481243,+0.8235,+185.66,+0.7885,0,000,+003.26
1568171416.8800843,+0.8237,+185.56,+0.7887,0,000,+003.26
1568171448.915937,+0.8239,+185.46,+0.7889,0,000,+003.26
1568171480.9499617,+0.8241,+185.36,+0.7891,0,000,+003.26
1568171512.9858217,+0.8243,+185.27,+0.7894,0,000,+003.26
1568171545.020159,+0.8245,+185.17,+0.7896,0,000,+003.26
1568171577.0556064,+0.8247,+185.07,+0.7898,0,000,+003.26
1568171609.0893407,+0.8249,+184.98,+0.7900,0,000,+003.26
1568171641.1233006,+0.8251,+184.88,+0.7902,0,000,+003.26
1568171673.1574585,+0.8253,+184.78,+0.7905,0,000,+003.26
1568171705.1932447,+0.8256,+184.69,+0.7907,0,000,+003.26
1568171737.2280414,+0.8258,+184.59,+0.7909,0,000,+003.26
1568171769.261899,+0.8260,+184.49,+0.7911,0,000,+003.26
1568171801.2969778,+0.8262,+184.40,+0.7913,0,000,+003.26
1568171833.3312798,+0.8264,+184.30,+0.7916,0,000,+003.26
1568171865.3610954,+0.8266,+184.20,+0.7918,0,000,+003.26
1568171897.3933487,+0.8268,+184.11,+0.7920,0,000,+003.26
1568171929.4285321,+0.8270,+184.01,+0.7922,0,000,+003.26
1568171961.4639277,+0.8272,+183.91,+0.7924,0,000,+003.26
1568171993.495719,+0.8274,+183.82,+0.7927,0,000,+003.26
1568172025.5304308,+0.8276,+183.72,+0.7929,0,000,+003.26
1568172057.5632246,+0.8278,+183.62,+0.7931,0,000,+003.26
1568172089.5974824,+0.8280,+183.53,+0.7933,0,000,+003.26
1568172121.6321218,+0.8282,+183.43,+0.7935,0,000,+003.26
1568172153.6673226,+0.8284,+183.34,+0.7938,0,000,+003.26
1568172185.7011466,+0.8286,+183.24,+0.7940,0,000,+003.26
1568172217.7313213,+0.8288,+183.15,+0.7942,0,000,+003.26
1568172249.7653995,+0.8290,+183.05,+0.7944,0,000,+003.26
1568172281.7997248,+0.8292,+182.95,+0.7946,0,000,+003.26
1568172313.8324249,+0.8294,+182.85,+0.7948,0,000,+003.26
1568172345.867963,+0.8296,+182.75,+0.7951,0,000,+003.26
1568172377.9010048,+0.8298,+182.66,+0.7953,0,000,+003.26
1568172409.9357154,+0.8300,+182.57,+0.7955,0,000,+003.26
1568172441.9677598,+0.8302,+182.47,+0.7957,0,000,+003.26
1568172473.999838,+0.8304,+182.37,+0.7959,0,000,+003.26
1568172506.0319207,+0.8306,+182.28,+0.7962,0,000,+003.26
1568172538.0483978,+0.8308,+182.18,+0.7964,0,000,+003.26
1568172570.079288,+0.8310,+182.08,+0.7966,0,000,+003.26
1568172602.1150968,+0.8312,+181.99,+0.7968,0,000,+003.26
1568172634.1473277,+0.8314,+181.89,+0.7970,0,000,+003.26
1568172666.1820176,+0.8316,+181.80,+0.7972,0,000,+003.26
1568172698.2165318,+0.8318,+181.70,+0.7975,0,000,+003.26
1568172730.2503943,+0.8320,+181.60,+0.7977,0,000,+003.26
1568172762.2859218,+0.8322,+181.51,+0.7979,0,000,+003.26
1568172794.32123,+0.8324,+181.42,+0.7981,0,000,+003.26
1568172826.3530445,+0.8326,+181.32,+0.7983,0,000,+003.26
1568172858.388584,+0.8328,+181.22,+0.7986,0,000,+003.26
1568172890.4244125,+0.8330,+181.13,+0.7988,0,000,+003.26
1568172922.4599483,+0.8332,+181.03,+0.7990,0,000,+003.26
1568172954.4952872,+0.8334,+180.93,+0.7992,0,000,+003.26
1568172986.5293438,+0.8336,+180.84,+0.7994,0,000,+003.26
1568173018.5631251,+0.8338,+180.75,+0.7996,0,000,+003.26
1568173050.5969727,+0.8340,+180.65,+0.7999,0,000,+003.26
1568173082.632691,+0.8342,+180.55,+0.8001,0,000,+003.26
1568173114.6663685,+0.8344,+180.46,+0.8003,0,000,+003.26
1568173146.7009528,+0.8346,+180.37,+0.8005,0,000,+003.26
1568173178.7313344,+0.8348,+180.27,+0.8007,0,000,+003.26
1568173210.7535706,+0.8350,+180.18,+0.8009,0,000,+003.26
1568173242.7789676,+0.8352,+180.08,+0.8012,0,000,+003.26
1568173274.8144813,+0.8354,+179.98,+0.8014,0,000,+003.26
1568173306.8433032,+0.8356,+179.89,+0.8016,0,000,+003.26
1568173338.8790684,+0.8358,+179.80,+0.8018,0,000,+003.26
1568173370.9133937,+0.8360,+179.70,+0.8020,0,000,+003.26
1568173402.9468784,+0.8362,+179.60,+0.8022,0,000,+003.26
1568173434.9814475,+0.8364,+179.51,+0.8025,0,000,+003.26
1568173467.01441,+0.8366,+179.42,+0.8027,0,000,+003.26
1568173499.0489867,+0.8368,+179.31,+0.8029,0,000,+003.26
1568173531.0851576,+0.8370,+179.23,+0.8031,0,000,+003.26
1568173563.121105,+0.8372,+179.13,+0.8033,0,000,+003.26
1568173595.154317,+0.8374,+179.03,+0.8035,0,000,+003.26
1568173627.1865766,+0.8376,+178.94,+0.8038,0,000,+003.26
1568173659.2205245,+0.8378,+178.84,+0.8040,0,000,+003.26
1568173691.2541075,+0.8380,+178.75,+0.8042,0,000,+003.26
1568173723.286042,+0.8382,+178.65,+0.8044,0,000,+003.26
1568173755.3196948,+0.8384,+178.56,+0.8046,0,000,+003.26
1568173787.3538733,+0.8386,+178.47,+0.8048,0,000,+003.26
1568173819.389593,+0.8388,+178.37,+0.8050,0,000,+003.26
1568173851.4248438,+0.8390,+178.28,+0.8053,0,000,+003.26
1568173883.458187,+0.8392,+178.18,+0.8055,0,000,+003.26
1568173915.4682121,+0.8394,+178.09,+0.8057,0,000,+003.26
1568173947.4962528,+0.8395,+178.00,+0.8059,0,000,+003.26
1568173979.5303206,+0.8397,+177.90,+0.8061,0,000,+003.26
1568174011.5649347,+0.8399,+177.80,+0.8063,0,000,+003.26
1568174043.5991383,+0.8401,+177.71,+0.8066,0,000,+003.26
1568174075.6349964,+0.8403,+177.61,+0.8068,0,000,+003.26
1568174107.670724,+0.8405,+177.52,+0.8070,0,000,+003.26
1568174139.7056696,+0.8407,+177.43,+0.8072,0,000,+003.26
1568174171.737404,+0.8409,+177.33,+0.8074,0,000,+003.26
1568174203.7699993,+0.8411,+177.24,+0.8076,0,000,+003.26
1568174235.8040617,+0.8413,+177.14,+0.8078,0,000,+003.26
1568174267.8389502,+0.8415,+177.05,+0.8080,0,000,+003.26
1568174299.8744738,+0.8417,+176.95,+0.8083,0,000,+003.26
1568174331.909867,+0.8419,+176.86,+0.8085,0,000,+003.26
1568174363.943312,+0.8421,+176.77,+0.8087,0,000,+003.26
1568174395.9774601,+0.8423,+176.67,+0.8089,0,000,+003.26
1568174428.0131001,+0.8425,+176.58,+0.8091,0,000,+003.26
1568174460.046641,+0.8427,+176.48,+0.8093,0,000,+003.26
1568174492.0818422,+0.8429,+176.39,+0.8095,0,000,+003.26
1568174524.1142545,+0.8431,+176.29,+0.8098,0,000,+003.26
1568174556.1474292,+0.8433,+176.21,+0.8100,0,000,+003.26
1568174588.1733155,+0.8435,+176.11,+0.8102,0,000,+003.26
1568174620.2080483,+0.8437,+176.02,+0.8104,0,000,+003.26
1568174652.2432969,+0.8439,+175.92,+0.8106,0,000,+003.26
1568174684.2774584,+0.8441,+175.83,+0.8108,0,000,+003.26
1568174716.313047,+0.8443,+175.74,+0.8110,0,000,+003.26
1568174748.3453863,+0.8445,+175.64,+0.8112,0,000,+003.26
1568174780.380894,+0.8447,+175.55,+0.8115,0,000,+003.26
1568174812.4157865,+0.8449,+175.46,+0.8117,0,000,+003.26
1568174844.4487967,+0.8451,+175.36,+0.8119,0,000,+003.26
1568174876.480273,+0.8453,+175.27,+0.8121,0,000,+003.26
1568174908.5153155,+0.8454,+175.17,+0.8123,0,000,+003.26
1568174940.5476966,+0.8456,+175.08,+0.8125,0,000,+003.26
1568174972.5833902,+0.8458,+174.99,+0.8127,0,000,+003.26
1568175004.6191998,+0.8460,+174.90,+0.8129,0,000,+003.26
1568175036.6517112,+0.8462,+174.80,+0.8132,0,000,+003.26
1568175068.6873622,+0.8464,+174.71,+0.8134,0,000,+003.26
1568175100.7193382,+0.8466,+174.61,+0.8136,0,000,+003.26
1568175132.7522955,+0.8468,+174.52,+0.8138,0,000,+003.26
1568175164.787247,+0.8470,+174.43,+0.8140,0,000,+003.26
1568175196.8214655,+0.8472,+174.33,+0.8142,0,000,+003.26
1568175228.8553257,+0.8474,+174.24,+0.8144,0,000,+003.26
1568175260.8880703,+0.8476,+174.15,+0.8147,0,000,+003.26
1568175292.9224267,+0.8478,+174.05,+0.8149,0,000,+003.26
1568175324.9544284,+0.8480,+173.96,+0.8151,0,000,+003.26
1568175356.9883394,+0.8482,+173.87,+0.8153,0,000,+003.26
1568175389.0239518,+0.8484,+173.77,+0.8155,0,000,+003.26
1568175421.0573227,+0.8486,+173.68,+0.8157,0,000,+003.26
1568175453.091227,+0.8488,+173.59,+0.8159,0,000,+003.26
1568175485.125449,+0.8490,+173.49,+0.8161,0,000,+003.26
1568175517.1587396,+0.8492,+173.40,+0.8163,0,000,+003.26
1568175549.1947584,+0.8493,+173.31,+0.8166,0,000,+003.26
1568175581.2286344,+0.8495,+173.22,+0.8168,0,000,+003.26
1568175613.2646556,+0.8497,+173.12,+0.8170,0,000,+003.26
1568175645.29911,+0.8499,+173.03,+0.8172,0,000,+003.26
1568175677.3327215,+0.8501,+172.94,+0.8174,0,000,+003.26
1568175709.3667512,+0.8503,+172.85,+0.8176,0,000,+003.26
1568175741.401243,+0.8505,+172.76,+0.8178,0,000,+003.26
1568175773.4360785,+0.8507,+172.66,+0.8180,0,000,+003.26
1568175805.4699104,+0.8509,+172.57,+0.8182,0,000,+003.26
1568175837.5036235,+0.8511,+172.48,+0.8185,0,000,+003.26
1568175869.5369692,+0.8513,+172.39,+0.8187,0,000,+003.26
1568175901.5686674,+0.8515,+172.29,+0.8189,0,000,+003.26
1568175933.5789273,+0.8517,+172.21,+0.8191,0,000,+003.26
1568175965.6037166,+0.8519,+172.11,+0.8193,0,000,+003.26
1568175997.6391199,+0.8521,+172.01,+0.8195,0,000,+003.26
1568176029.6724126,+0.8523,+171.92,+0.8197,0,000,+003.26
1568176061.7081563,+0.8524,+171.83,+0.8199,0,000,+003.26
1568176093.7392886,+0.8526,+171.74,+0.8201,0,000,+003.26
1568176125.775126,+0.8528,+171.65,+0.8203,0,000,+003.26
1568176157.8076644,+0.8530,+171.55,+0.8205,0,000,+003.26
1568176189.843313,+0.8532,+171.46,+0.8208,0,000,+003.26
1568176221.8789108,+0.8534,+171.37,+0.8210,0,000,+003.26
1568176253.912392,+0.8536,+171.28,+0.8212,0,000,+003.26
1568176285.9432192,+0.8538,+171.19,+0.8214,0,000,+003.26
1568176317.9758615,+0.8540,+171.09,+0.8216,0,000,+003.26
1568176350.0053682,+0.8542,+171.00,+0.8218,0,000,+003.26
1568176382.0400617,+0.8544,+170.91,+0.8220,0,000,+003.26
1568176414.0759263,+0.8546,+170.82,+0.8222,0,000,+003.26
1568176446.1107972,+0.8547,+170.72,+0.8224,0,000,+003.26
1568176478.141404,+0.8549,+170.63,+0.8226,0,000,+003.26
1568176510.171517,+0.8551,+170.54,+0.8229,0,000,+003.26
1568176542.2073073,+0.8553,+170.44,+0.8231,0,000,+003.26
1568176574.2423334,+0.8555,+170.35,+0.8233,0,000,+003.26
1568176606.2774327,+0.8557,+170.26,+0.8235,0,000,+003.26
1568176638.3042095,+0.8559,+170.17,+0.8237,0,000,+003.26
1568176670.33934,+0.8561,+170.08,+0.8239,0,000,+003.26
1568176702.3699975,+0.8563,+169.99,+0.8241,0,000,+003.26
1568176734.4060173,+0.8565,+169.90,+0.8243,0,000,+003.26
1568176766.4419405,+0.8567,+169.81,+0.8245,0,000,+003.26
1568176798.4752872,+0.8568,+169.71,+0.8247,0,000,+003.26
1568176830.5110784,+0.8570,+169.62,+0.8249,0,000,+003.26
1568176862.5457857,+0.8572,+169.53,+0.8252,0,000,+003.26
1568176894.5792363,+0.8574,+169.44,+0.8254,0,000,+003.26
1568176926.6135473,+0.8576,+169.34,+0.8256,0,000,+003.26
1568176958.6483943,+0.8578,+169.26,+0.8258,0,000,+003.26
1568176990.682719,+0.8580,+169.17,+0.8260,0,000,+003.26
1568177022.7174308,+0.8582,+169.08,+0.8262,0,000,+003.26
1568177054.7494483,+0.8584,+168.98,+0.8264,0,000,+003.26
1568177086.7852495,+0.8585,+168.89,+0.8266,0,000,+003.26
1568177118.819231,+0.8587,+168.80,+0.8268,0,000,+003.26
1568177150.8542588,+0.8589,+168.71,+0.8270,0,000,+003.26
1568177182.889492,+0.8591,+168.62,+0.8272,0,000,+003.26
1568177214.9232872,+0.8593,+168.53,+0.8274,0,000,+003.26
1568177246.956617,+0.8595,+168.43,+0.8276,0,000,+003.26
1568177278.9880373,+0.8597,+168.34,+0.8278,0,000,+003.26
1568177311.0080874,+0.8599,+168.25,+0.8281,0,000,+003.26
1568177343.0396867,+0.8600,+168.16,+0.8283,0,000,+003.26
1568177375.0752048,+0.8602,+168.07,+0.8285,0,000,+003.26
1568177407.1089509,+0.8604,+167.98,+0.8287,0,000,+003.26
1568177439.1432238,+0.8606,+167.89,+0.8289,0,000,+003.26
1568177471.1772423,+0.8608,+167.80,+0.8291,0,000,+003.26
1568177503.2126133,+0.8610,+167.71,+0.8293,0,000,+003.26
1568177535.2463121,+0.8612,+167.62,+0.8295,0,000,+003.26
1568177567.2817261,+0.8614,+167.52,+0.8297,0,000,+003.26
1568177599.3139164,+0.8615,+167.44,+0.8299,0,000,+003.26
1568177631.347689,+0.8617,+167.35,+0.8301,0,000,+003.26
1568177663.3818805,+0.8619,+167.26,+0.8303,0,000,+003.26
1568177695.416442,+0.8621,+167.16,+0.8305,0,000,+003.26
1568177727.451026,+0.8623,+167.08,+0.8307,0,000,+003.26
1568177759.4841,+0.8625,+166.99,+0.8309,0,000,+003.26
1568177791.5173566,+0.8627,+166.89,+0.8311,0,000,+003.26
1568177823.5500464,+0.8628,+166.80,+0.8314,0,000,+003.26
1568177855.5839777,+0.8630,+166.71,+0.8316,0,000,+003.26
1568177887.6161003,+0.8632,+166.63,+0.8318,0,000,+003.26
1568177919.651873,+0.8634,+166.53,+0.8320,0,000,+003.26
1568177951.6870725,+0.8636,+166.44,+0.8322,0,000,+003.26
1568177983.7153273,+0.8638,+166.35,+0.8324,0,000,+003.26
1568178015.7475896,+0.8640,+166.26,+0.8326,0,000,+003.26
1568178047.781953,+0.8641,+166.17,+0.8328,0,000,+003.26
1568178079.8160608,+0.8643,+166.08,+0.8330,0,000,+003.26
1568178111.8500283,+0.8645,+165.99,+0.8332,0,000,+003.26
1568178143.883535,+0.8647,+165.91,+0.8334,0,000,+003.26
1568178175.9180126,+0.8649,+165.82,+0.8336,0,000,+003.26
1568178207.9502475,+0.8651,+165.73,+0.8338,0,000,+003.26
1568178239.9858313,+0.8653,+165.64,+0.8340,0,000,+003.26
1568178272.0187328,+0.8654,+165.55,+0.8342,0,000,+003.26
1568178304.0515773,+0.8656,+165.46,+0.8344,0,000,+003.26
1568178336.0840569,+0.8658,+165.36,+0.8346,0,000,+003.26
1568178368.1175578,+0.8660,+165.28,+0.8348,0,000,+003.26
1568178400.149968,+0.8662,+165.19,+0.8350,0,000,+003.26
1568178432.185679,+0.8664,+165.10,+0.8352,0,000,+003.26
1568178464.2192485,+0.8665,+165.01,+0.8354,0,000,+003.26
1568178496.2528684,+0.8667,+164.92,+0.8356,0,000,+003.26
1568178528.2884474,+0.8669,+164.83,+0.8358,0,000,+003.26
